X[m], Tg[K], Pg[Pa], Rhog[kg/m^3], Rd[m], Yf, Ug[m/s], HRR
0.0000000000 1764.586022 2288170.571959 4.499579 5.000000e-06 0.000000e+00 333.301809 -9.131785e+03
0.0000090706 1765.011027 2288653.311383 4.499449 4.999957e-06 1.055584e-06 333.312040 -5.329863e+08
0.0000181412 1765.431242 2289135.089801 4.499327 4.999914e-06 1.638780e-06 333.321643 -8.798924e+08
0.0000272118 1765.847209 2289615.780110 4.499213 4.999870e-06 1.953062e-06 333.330691 -1.099661e+09
0.0000531830 1767.012011 2290983.315000 4.498932 4.999742e-06 2.246165e-06 333.353200 -1.382156e+09
0.0000791542 1768.150571 2292340.885930 4.498697 4.999610e-06 2.324643e-06 333.372348 -1.511880e+09
0.0001051254 1769.264041 2293688.268727 4.498506 4.999475e-06 2.361939e-06 333.388323 -1.588681e+09
0.0002230557 1773.903429 2299625.134937 4.498338 4.998798e-06 2.497418e-06 333.409860 -1.807149e+09
0.0003409859 1778.115016 2305360.753381 4.498855 4.998042e-06 2.640649e-06 333.381695 -1.933505e+09
0.0004589162 1781.932993 2310892.677051 4.499959 4.997198e-06 2.798081e-06 333.311202 -1.913271e+09
0.0006385678 1787.178166 2318970.446970 4.502374 4.995753e-06 3.058584e-06 333.151839 -1.422444e+09
0.0008182195 1791.762233 2326551.125731 4.505436 4.994073e-06 3.350057e-06 332.947855 -1.004005e+08
0.0009567414 1794.913407 2332027.389821 4.507999 4.992595e-06 3.594821e-06 332.778324 1.640311e+09
0.0010952633 1797.817503 2337163.841291 4.510468 4.990937e-06 3.851170e-06 332.618198 4.058037e+09
0.0012337853 1800.552589 2341951.852218 4.512621 4.989086e-06 4.113882e-06 332.484174 7.116192e+09
0.0013723072 1803.195738 2346384.259095 4.514238 4.987026e-06 4.384158e-06 332.392447 1.066358e+10
0.0015701298 1806.916906 2352099.555246 4.515348 4.983698e-06 4.764167e-06 332.354908 1.637114e+10
0.0017679523 1810.702163 2357105.385022 4.514755 4.979882e-06 5.128705e-06 332.449257 2.264479e+10
0.0019657749 1814.647135 2361436.051607 4.512301 4.975542e-06 5.468451e-06 332.687554 2.913737e+10
0.0021635975 1818.538539 2364621.938204 4.507656 4.970655e-06 5.778929e-06 333.095164 3.506242e+10
0.0023614201 1822.451256 2366811.040489 4.500958 4.965206e-06 6.049812e-06 333.663043 4.046867e+10
0.0025592427 1826.588400 2368410.072036 4.492512 4.959188e-06 6.267140e-06 334.369953 4.591372e+10
0.0027953045 1832.001997 2369867.661961 4.480337 4.951258e-06 6.443880e-06 335.383460 5.264406e+10
0.0030313664 1838.027599 2370945.107548 4.465895 4.942504e-06 6.525446e-06 336.583789 5.966659e+10
0.0032674282 1844.696487 2371622.389434 4.449117 4.932923e-06 6.513725e-06 337.979916 6.689313e+10
0.0035034901 1852.020371 2371869.343878 4.429974 4.922516e-06 6.415613e-06 339.578237 7.427957e+10
0.0037395519 1860.006977 2371681.003957 4.408508 4.911290e-06 6.241150e-06 341.380358 8.193057e+10
0.0040831777 1872.834855 2370647.823691 4.373265 4.893507e-06 5.877950e-06 344.367286 9.287843e+10
0.0044268035 1887.120430 2368720.653916 4.333461 4.874051e-06 5.418554e-06 347.788733 1.042633e+11
0.0047704293 1902.930875 2365891.300797 4.289214 4.852974e-06 4.900317e-06 351.656874 1.159659e+11
0.0051140550 1920.359551 2362136.968298 4.240584 4.830336e-06 4.355422e-06 355.992142 1.281024e+11
0.0054576808 1939.507570 2357426.342989 4.187622 4.806208e-06 3.810589e-06 360.819179 1.408263e+11
0.0059371934 1969.207427 2349210.624251 4.106797 4.770192e-06 3.114248e-06 368.409664 1.595465e+11
0.0064167060 2002.359961 2339052.372234 4.018707 4.731642e-06 2.429938e-06 377.008982 1.786560e+11
0.0068962185 2038.622869 2327020.076250 3.924950 4.690791e-06 1.756958e-06 386.564872 1.962345e+11
0.0073757311 2077.351419 2313298.852187 3.827662 4.647876e-06 7.684519e-07 396.963867 2.114522e+11
0.0078552437 2117.648978 2298300.136159 3.729509 4.603127e-06 1.216021e-06 408.029131 2.120016e+11
0.0080237886 2132.017782 2292788.263251 3.695211 4.587005e-06 9.566939e-07 412.042906 2.176558e+11
0.0080743520 2136.339784 2291107.131985 3.684951 4.582130e-06 9.107735e-07 413.257554 2.184835e+11
0.0081249155 2140.665191 2289413.806096 3.674709 4.577240e-06 8.567609e-07 414.476604 2.193876e+11
0.0081754789 2144.992584 2287711.512716 3.664492 4.572332e-06 8.805085e-07 415.699766 2.189712e+11
0.0082260424 2149.320630 2285999.613219 3.654301 4.567408e-06 8.008028e-07 416.926820 2.203075e+11
0.0082766058 2153.648841 2284280.767678 3.644141 4.562468e-06 8.686304e-07 418.157630 2.190158e+11
0.0083886512 2163.233519 2280444.443502 3.621743 4.551466e-06 8.059708e-07 420.897045 2.197740e+11
0.0085006965 2172.806776 2276565.399600 3.599496 4.540389e-06 6.961267e-07 423.652286 2.215374e+11
0.0086127418 2182.360323 2272647.021920 3.577416 4.529239e-06 6.354343e-07 426.421296 2.222133e+11
0.0087247871 2191.884286 2268697.408387 3.555529 4.518019e-06 6.183956e-07 429.201832 2.217507e+11
0.0091430073 2227.005104 2253738.382410 3.475799 4.475587e-06 5.180109e-07 439.642866 2.200234e+11
0.0095612275 2261.306711 2238531.596825 3.399347 4.432356e-06 4.640358e-07 450.143856 2.158629e+11
0.0099794477 2294.577785 2223194.766876 3.326404 4.388462e-06 4.562006e-07 460.643616 2.094521e+11
0.0103976679 2326.688887 2207745.710692 3.256917 4.344050e-06 2.585745e-07 471.100460 2.102832e+11
0.0109963565 2370.420435 2185705.834978 3.163688 4.279925e-06 2.345082e-07 485.909127 1.999609e+11
0.0115950451 2411.467054 2163886.774290 3.077474 4.215578e-06 1.436017e-07 500.452264 1.970912e+11
0.0121937337 2449.809156 2142286.814470 2.997720 4.151639e-06 1.048396e-07 514.656532 1.863831e+11
0.0127924223 2485.347889 2121219.565505 2.924496 4.088998e-06 9.243704e-08 528.411272 1.734608e+11
0.0134807174 2522.643325 2098003.941577 2.848462 4.020541e-06 7.229815e-08 543.415767 1.623789e+11
0.0140514000 2550.395976 2080155.599438 2.792850 3.969466e-06 4.443225e-08 554.905708 1.433116e+11
0.0142074375 2557.347993 2075532.990407 2.778876 3.955579e-06 4.869808e-08 557.884698 1.410080e+11
0.0143634749 2564.068189 2070863.195953 2.764995 3.940354e-06 5.302065e-08 560.893364 1.430938e+11
0.0145195124 2570.728004 2066031.848924 2.750854 3.923754e-06 5.221612e-08 564.002217 1.465638e+11
0.0146755498 2577.422122 2061011.569346 2.736368 3.906014e-06 5.233376e-08 567.227102 1.497076e+11
0.0148315873 2584.172714 2055818.876132 2.721585 3.887340e-06 5.458766e-08 570.558803 1.521149e+11
0.0149999675 2591.524914 2050036.214671 2.705349 3.866275e-06 5.471642e-08 574.265452 1.552303e+11
0.0151683477 2598.956039 2044067.049922 2.688828 3.844335e-06 5.368557e-08 578.087748 1.584378e+11
0.0153367279 2606.472417 2037913.048165 2.672038 3.821598e-06 5.319209e-08 582.022540 1.612893e+11
0.0155051081 2614.062058 2031582.669731 2.655016 3.798139e-06 5.076147e-08 586.064640 1.647097e+11
0.0158501933 2629.789105 2018122.145182 2.619622 3.748185e-06 4.906508e-08 594.642882 1.685419e+11
0.0161952785 2645.629512 2004084.251954 2.583806 3.696057e-06 4.618432e-08 603.563003 1.710713e+11
0.0165403638 2661.408855 1989593.059016 2.547945 3.642232e-06 4.310468e-08 612.749160 1.713083e+11
0.0168854490 2676.955914 1974767.853523 2.512368 3.587111e-06 3.965993e-08 622.117707 1.710193e+11
0.0175558024 2705.821254 1945506.878070 2.445268 3.477703e-06 3.411961e-08 640.548238 1.646967e+11
0.0182261558 2732.508642 1916070.639509 2.381536 3.366264e-06 2.902891e-08 658.961291 1.566337e+11
0.0188965092 2756.590513 1886969.987795 2.321888 3.253871e-06 2.431415e-08 677.038817 1.461303e+11
0.0195668626 2777.808862 1858532.408845 2.266621 3.141025e-06 1.999451e-08 694.703777 1.327579e+11
0.0205018809 2802.788662 1820268.915756 2.196531 2.983153e-06 1.759737e-08 718.478975 1.185973e+11
0.0214368991 2822.833248 1783755.620638 2.133824 2.824728e-06 1.506014e-08 741.184741 1.037978e+11
0.0223719174 2838.710587 1749005.395567 2.077463 2.665323e-06 1.273957e-08 762.763337 9.160244e+10
0.0233069356 2851.112028 1715924.172324 2.026494 2.504320e-06 1.103120e-08 783.273607 8.023630e+10
0.0242419539 2860.626744 1684462.138492 1.980195 2.340995e-06 9.612354e-09 802.762689 7.034045e+10
0.0248262617 2865.320663 1665577.027155 1.953349 2.237381e-06 8.825935e-09 814.460339 6.466622e+10
0.0254105694 2869.164407 1647264.998204 1.927959 2.132260e-06 8.109114e-09 825.809922 5.941170e+10
0.0259948772 2872.241722 1629484.335609 1.903892 2.025316e-06 7.445601e-09 836.839147 5.457653e+10
0.0265791849 2874.640993 1612215.346698 1.881043 1.916174e-06 6.822363e-09 847.559126 5.011219e+10
0.0271634927 2876.444704 1595449.112263 1.859326 1.804386e-06 6.231237e-09 857.974194 4.590476e+10
0.0277286593 2877.704765 1579734.637823 1.839359 1.693223e-06 5.680632e-09 867.740986 4.212230e+10
0.0282938259 2878.544353 1564505.968980 1.820354 1.578436e-06 5.145525e-09 877.211261 3.857566e+10
0.0288589926 2879.015676 1549761.743087 1.802267 1.459206e-06 4.619002e-09 886.386332 3.526177e+10
0.0294241592 2879.169727 1535509.837530 1.785067 1.334446e-06 4.095599e-09 895.261305 3.212899e+10
0.0299893258 2879.063171 1521783.440146 1.768751 1.202643e-06 3.567847e-09 903.814930 2.914223e+10
0.0318601833 2877.887981 1481720.306875 1.722337 6.551507e-07 1.569928e-09 928.823485 1.986164e+10
0.0320285605 2877.774056 1478575.832820 1.718765 5.947061e-07 1.396446e-09 930.787614 1.873695e+10
0.0321969377 2877.672224 1475540.916568 1.715324 5.300368e-07 1.193183e-09 932.683593 1.789823e+10
0.0323653149 2877.583514 1472611.728114 1.712010 4.602425e-07 9.742901e-10 934.513779 1.707306e+10
0.0325336920 2877.515813 1469802.771567 1.708837 3.844011e-07 7.416226e-10 936.269060 1.617711e+10
0.0327020692 2877.475531 1467129.558753 1.705818 3.019906e-07 4.977899e-10 937.939678 1.526641e+10
0.0328155615 2877.466348 1465411.306512 1.703879 2.439441e-07 3.277366e-10 939.013555 1.463644e+10
0.0329290538 2877.472441 1463766.071110 1.702022 1.915834e-07 1.689246e-10 940.041824 1.398198e+10
0.0330425461 2877.492811 1462200.624967 1.700255 1.537359e-07 4.772526e-11 941.020238 1.329996e+10
0.0331560384 2877.523419 1460719.972081 1.698585 1.415069e-07 0.000000e+00 941.945658 1.259788e+10
0.0332695307 2877.557237 1459321.397613 1.697010 1.432720e-07 0.000000e+00 942.819759 1.196860e+10
0.0335091147 2877.617435 1456546.461108 1.693893 1.427921e-07 0.000000e+00 944.554101 1.097476e+10
0.0337486988 2877.658011 1453953.781127 1.690992 1.446196e-07 3.234372e-12 946.174448 1.023216e+10
0.0339882828 2877.677356 1451494.530386 1.688249 1.450377e-07 3.313400e-12 947.711419 9.585048e+09
0.0342278668 2877.677796 1449149.284491 1.685642 1.447383e-07 2.335959e-13 949.177189 8.993443e+09
0.0348552576 2877.582454 1443665.101244 1.679589 1.449899e-07 0.000000e+00 952.604442 7.706000e+09
0.0354826484 2877.416909 1438743.188112 1.674192 1.455985e-07 0.000000e+00 955.680319 6.656488e+09
0.0361100392 2877.208303 1434311.096298 1.669357 1.460917e-07 0.000000e+00 958.450071 5.743543e+09
0.0374471151 2876.667781 1426020.906144 1.660378 1.469797e-07 0.000000e+00 963.631283 4.327677e+09
0.0387841909 2876.037453 1419171.340934 1.653038 1.478769e-07 1.067025e-12 967.912281 3.367928e+09
0.0401212667 2875.368682 1413448.479901 1.646965 1.485014e-07 0.000000e+00 971.489032 2.666905e+09
0.0414583425 2874.721491 1408646.110126 1.641904 1.492651e-07 1.425589e-12 974.490499 2.143120e+09
0.0437658923 2873.681788 1401838.245764 1.634780 1.502601e-07 0.000000e+00 978.745475 1.504974e+09
0.0460734420 2872.740085 1396469.887711 1.629212 1.512336e-07 0.000000e+00 982.100372 1.120904e+09
0.0483809918 2871.856034 1392024.368837 1.624645 1.521264e-07 0.000000e+00 984.878136 9.271369e+08
0.0506885415 2870.935927 1387938.084235 1.620492 1.529236e-07 0.000000e+00 987.430495 7.896538e+08
0.0519594826 2870.475557 1385899.674679 1.618419 1.534174e-07 0.000000e+00 988.703927 7.011980e+08
0.0523407649 2870.356813 1385347.260385 1.617855 1.536154e-07 0.000000e+00 989.049137 6.794652e+08
0.0527220473 2870.242435 1384813.597103 1.617309 1.538873e-07 0.000000e+00 989.382643 6.600009e+08
0.0531033296 2870.129729 1384292.002555 1.616776 1.542501e-07 0.000000e+00 989.708605 6.408277e+08
0.0534846119 2870.017975 1383779.987067 1.616254 1.547813e-07 0.000000e+00 990.028574 6.230910e+08
0.0535989966 2869.984612 1383628.055548 1.616099 1.550111e-07 0.000000e+00 990.123516 6.180409e+08
0.0537133813 2869.951359 1383476.918640 1.615945 1.553330e-07 0.000000e+00 990.217960 6.130365e+08
0.0538277660 2869.918163 1383326.373837 1.615791 1.558541e-07 0.000000e+00 990.312028 6.081361e+08
0.0539421507 2869.884841 1383175.696939 1.615638 1.570076e-07 0.000000e+00 990.406163 6.033804e+08
0.0539764661 2869.874694 1383129.961969 1.615591 1.577931e-07 0.000000e+00 990.434723 6.020979e+08
0.0539867607 2869.871601 1383116.044619 1.615577 1.581620e-07 0.000000e+00 990.443411 6.017263e+08
0.0539970554 2869.868456 1383101.922113 1.615562 1.586638e-07 0.000000e+00 990.452223 6.013851e+08
0.0540073500 2869.865215 1383087.414166 1.615548 1.594108e-07 0.000000e+00 990.461269 6.011023e+08
0.0540176446 2869.861734 1383071.927163 1.615532 1.607702e-07 0.000000e+00 990.470909 6.009855e+08
0.0540207330 2869.860559 1383066.749189 1.615526 1.615067e-07 0.000000e+00 990.474125 6.010789e+08
0.0540216595 2869.860172 1383065.054482 1.615525 1.618144e-07 0.000000e+00 990.475175 6.011425e+08
0.0540225860 2869.859752 1383063.224134 1.615523 1.622052e-07 0.000000e+00 990.476308 6.012472e+08
0.0540235125 2869.859264 1383061.118838 1.615521 1.627643e-07 0.000000e+00 990.477607 6.014518e+08
0.0540237905 2869.859090 1383060.373282 1.615520 1.630018e-07 0.000000e+00 990.478066 6.015830e+08
0.0540240685 2869.858861 1383059.408065 1.615519 1.633736e-07 0.000000e+00 990.478659 6.018863e+08
0.0540240935 2869.858830 1383059.275475 1.615519 1.634350e-07 0.000000e+00 990.478740 6.020009e+08
0.0540240941 2869.858829 1383059.270691 1.615519 1.634374e-07 0.000000e+00 990.478743 6.020071e+08
0.0540240948 2869.858828 1383059.270260 1.615519 1.634372e-07 1.735489e-14 990.478743 6.019911e+08
0.0540240955 2869.858828 1383059.268811 1.615519 1.634375e-07 5.590529e-14 990.478744 6.019669e+08
0.0540240962 2869.858828 1383059.269674 1.615519 1.634365e-07 1.368335e-13 990.478743 6.019133e+08
0.0540240969 2869.858828 1383059.268321 1.615519 1.634367e-07 2.675895e-13 990.478744 6.018397e+08
0.0540240972 2869.858828 1383059.266026 1.615519 1.634379e-07 0.000000e+00 990.478746 6.019331e+08
0.0540240976 2869.858827 1383059.262804 1.615519 1.634395e-07 3.284690e-13 990.478747 6.017400e+08
0.0540240980 2869.858827 1383059.262811 1.615519 1.634392e-07 4.204501e-11 990.478747 5.796907e+08
0.0540240984 2869.858826 1383059.261255 1.615519 1.634399e-07 2.178920e-11 990.478748 5.903011e+08
0.0540240984 2869.858826 1383059.260966 1.615519 1.634400e-07 1.548018e-11 990.478749 5.936223e+08
0.0540240984 2869.858826 1383059.261081 1.615519 1.634399e-07 1.934948e-11 990.478749 5.915795e+08
0.0540240985 2869.858826 1383059.260831 1.615519 1.634401e-07 1.395084e-11 990.478749 5.944214e+08
0.0540240985 2869.858826 1383059.260742 1.615519 1.634401e-07 1.195296e-11 990.478749 5.954735e+08
0.0540240985 2869.858826 1383059.260641 1.615519 1.634402e-07 9.642951e-12 990.478749 5.966902e+08
0.0540240985 2869.858826 1383059.260668 1.615519 1.634401e-07 1.057715e-11 990.478749 5.961973e+08
0.0540240985 2869.858826 1383059.260646 1.615519 1.634401e-07 1.008800e-11 990.478749 5.964549e+08
0.0540240985 2869.858826 1383059.260617 1.615519 1.634402e-07 9.443179e-12 990.478749 5.967946e+08
0.0540240985 2869.858826 1383059.260624 1.615519 1.634402e-07 9.690043e-12 990.478749 5.966643e+08
0.0540240985 2869.858826 1383059.260598 1.615519 1.634402e-07 9.087123e-12 990.478749 5.969819e+08
0.0540240985 2869.858826 1383059.260606 1.615519 1.634402e-07 9.347836e-12 990.478749 5.968444e+08
0.0540240985 2869.858826 1383059.260583 1.615519 1.634402e-07 8.821087e-12 990.478749 5.971219e+08
0.0540240985 2869.858826 1383059.260588 1.615519 1.634402e-07 9.004864e-12 990.478749 5.970249e+08
0.0540240985 2869.858826 1383059.260590 1.615519 1.634402e-07 9.090803e-12 990.478749 5.969796e+08
0.0540240985 2869.858826 1383059.260591 1.615519 1.634402e-07 9.118027e-12 990.478749 5.969652e+08
0.0540240985 2869.858826 1383059.260592 1.615519 1.634402e-07 9.145476e-12 990.478749 5.969508e+08
0.0540240985 2869.858826 1383059.260592 1.615519 1.634402e-07 9.147949e-12 990.478749 5.969495e+08
0.0540240985 2869.858826 1383059.260592 1.615519 1.634402e-07 9.150423e-12 990.478749 5.969482e+08
0.0540240985 2869.858826 1383059.260592 1.615519 1.634402e-07 9.151166e-12 990.478749 5.969478e+08
0.0540240985 2869.858826 1383059.260592 1.615519 1.634402e-07 9.151908e-12 990.478749 5.969474e+08
0.0540240985 2869.858826 1383059.260592 1.615519 1.634402e-07 9.152130e-12 990.478749 5.969473e+08
0.0540240985 2869.858826 1383059.260592 1.615519 1.634402e-07 9.152197e-12 990.478749 5.969472e+08
0.0540240985 2869.858826 1383059.260592 1.615519 1.634402e-07 9.152264e-12 990.478749 5.969472e+08
0.0540240985 2869.858826 1383059.260592 1.615519 1.634402e-07 9.152331e-12 990.478749 5.969472e+08
0.0540240985 2869.858826 1383059.260592 1.615519 1.634402e-07 9.152308e-12 990.478749 5.969472e+08
0.0540240985 2869.858826 1383059.260592 1.615519 1.634402e-07 9.152319e-12 990.478749 5.969472e+08
0.0540240985 2869.858826 1383059.260592 1.615519 1.634402e-07 9.152359e-12 990.478749 5.969471e+08
0.0540240985 2869.858826 1383059.260592 1.615519 1.634402e-07 9.152345e-12 990.478749 5.969471e+08
0.0540240985 2869.858826 1383059.260592 1.615519 1.634402e-07 9.152335e-12 990.478749 5.969472e+08
0.0540240985 2869.858826 1383059.260592 1.615519 1.634402e-07 9.152330e-12 990.478749 5.969472e+08
